X(km), Y(km), Z(km), R(km), theta(deg), adT(K), Vp(an)(km/s), Vs(an)(km/s), V_bulk(km/s)
  3185.472900  5517.389200     0.004395  6370.995605    30.000052  1600.000000     6.929078     3.738846     5.432167
  3149.294700  5538.132800     0.004395  6370.995605    29.625002  1599.998900     6.929079     3.738847     5.432167
  3112.972700  5558.616200     0.004395  6370.995605    29.249984  1599.997900     6.929080     3.738848     5.432168
  3076.535200  5578.868700     0.004395  6370.995605    28.875074  1599.996900     6.929081     3.738849     5.432168
  3039.953400  5598.890600     0.004395  6370.995605    28.500030  1599.996100     6.929082     3.738849     5.432168
  3003.256100  5618.682100     0.004395  6370.995605    28.125062  1599.995200     6.929082     3.738850     5.432169
  2966.414800  5638.212900     0.004395  6370.995605    27.750059  1599.994400     6.929083     3.738851     5.432169
  2929.429200  5657.513700     0.004395  6370.995605    27.374870  1599.993700     6.929084     3.738851     5.432169
  2892.356700  5676.554700     0.004395  6370.995605    27.000060  1599.992900     6.929085     3.738852     5.432170
  2855.140400  5695.365200     0.004395  6370.995605    26.625040  1599.992400     6.929085     3.738852     5.432170
  2817.808300  5713.915500     0.004395  6370.995605    26.250136  1599.992400     6.929085     3.738852     5.432170
  2780.332300  5732.235400     0.004395  6370.995605    25.874988  1599.991200     6.929086     3.738853     5.432170
  2742.769500  5750.324200     0.004395  6370.995605    25.500044  1599.990800     6.929086     3.738854     5.432170
  2705.062500  5768.153300     0.004395  6370.995605    25.124937  1599.990400     6.929087     3.738854     5.432170
  2667.269000  5785.723100     0.004395  6370.995605    24.750115  1599.990100     6.929087     3.738854     5.432171
  2629.331300  5803.062500     0.004395  6370.995605    24.374982  1599.989900     6.929087     3.738854     5.432171
  2591.306900  5820.141100     0.004395  6370.995605    24.000107  1599.990500     6.929087     3.738854     5.432170
  2553.138400  5836.989700     0.004395  6370.995605    23.624890  1599.990500     6.929087     3.738854     5.432170
  2514.883300  5853.578600     0.004395  6370.995605    23.249896  1599.990500     6.929087     3.738854     5.432170
  2476.512900  5869.907700     0.004395  6370.995605    22.874871  1599.993300     6.929084     3.738852     5.432169
  2438.055900  5885.977100     0.004395  6370.995605    22.500036  1599.995800     6.929082     3.738849     5.432169
  2399.483400  5901.815900     0.004395  6370.995605    22.125034  1599.998800     6.929079     3.738847     5.432167
  2360.795400  5917.394500     0.004395  6370.995605    21.749952  1599.996700     6.929081     3.738849     5.432168
  2322.021000  5932.714400     0.004395  6370.995605    21.375011  1599.996700     6.929081     3.738849     5.432168
  2283.131300  5947.802700     0.004395  6370.995605    20.999863  1599.992400     6.929085     3.738852     5.432170
  2244.155000  5962.602500     0.004395  6370.995605    20.624918  1599.992400     6.929085     3.738852     5.432170
  2205.092000  5977.171900     0.004395  6370.995605    20.249973  1599.998700     6.929079     3.738847     5.432168
  2165.913800  5991.481400     0.004395  6370.995605    19.874866  1599.998700     6.929079     3.738847     5.432168
  2126.677700  6005.531300     0.004395  6370.995605    19.500063  1599.993900     6.929084     3.738851     5.432169
  2087.326400  6019.321800     0.004395  6370.995605    19.125064  1599.998200     6.929080     3.738847     5.432168
  2047.859500  6032.852500     0.004395  6370.995605    18.749846  1599.994400     6.929083     3.738851     5.432169
  2008.335000  6046.123500     0.004395  6370.995605    18.374889  1599.996600     6.929081     3.738849     5.432168
  1968.724000  6059.134800     0.004395  6370.995605    17.999929  1599.996600     6.929081     3.738849     5.432168
  1929.026500  6071.886200     0.004395  6370.995605    17.624951  1599.995800     6.929082     3.738849     5.432169
  1889.242300  6084.378400     0.004395  6370.995605    17.249936  1599.995800     6.929082     3.738849     5.432169
  1849.400500  6096.610800     0.004395  6370.995605    16.875119  1599.995800     6.929082     3.738849     5.432169
  1809.443100  6108.584000     0.004395  6370.995605    16.499983  1599.995800     6.929082     3.738849     5.432169
  1769.428200  6120.296400     0.004395  6370.995605    16.125018  1599.995800     6.929082     3.738849     5.432169
  1729.326800  6131.750500     0.004395  6370.995605    15.749950  1599.954200     6.929119     3.738885     5.432183
  1689.167500  6142.944300     0.004395  6370.995605    15.375018  1599.983600     6.929093     3.738860     5.432173
  1648.921800  6153.849100     0.004395  6370.995605    15.000025  1599.992400     6.929085     3.738852     5.432170
  1608.618300  6164.523900     0.004395  6370.995605    14.625065  1599.987500     6.929089     3.738857     5.432171
  1568.228300  6174.910200     0.004395  6370.995605    14.250007  1599.972900     6.929103     3.738869     5.432176
  1527.780600  6185.036600     0.004395  6370.995605    13.875021  1599.972900     6.929103     3.738869     5.432176
  1487.275100  6194.902800     0.004395  6370.995605    13.500092  1599.969800     6.929105     3.738871     5.432178
  1446.683200  6204.509800     0.004395  6370.995605    13.124951  1599.984600     6.929092     3.738859     5.432172
  1406.062500  6213.857400     0.004395  6370.995605    12.750088  1599.975800     6.929100     3.738866     5.432175
  1365.355100  6222.916500     0.004395  6370.995605    12.375038  1599.978500     6.929097     3.738864     5.432175
  1324.590000  6231.715300     0.004395  6370.995605    11.999982  1599.978500     6.929097     3.738864     5.432175
  1283.767300  6240.255400     0.004395  6370.995605    11.624903  1599.978500     6.929097     3.738864     5.432175
  1242.915600  6248.534700     0.004395  6370.995605    11.250042  1599.978500     6.929097     3.738864     5.432175
  1201.977500  6256.525900     0.004395  6370.995605    10.874924  1599.996500     6.929081     3.738849     5.432168
  1161.010500  6264.258300     0.004395  6370.995605    10.499990  1599.996500     6.929081     3.738849     5.432168
  1119.985800  6271.730000     0.004395  6370.995605    10.124973  1599.996500     6.929081     3.738849     5.432168
  1078.903400  6278.914100     0.004395  6370.995605     9.749899  1599.996500     6.929081     3.738849     5.432168
  1037.792200  6285.838400     0.004395  6370.995605     9.374965  1599.998300     6.929080     3.738847     5.432168
   996.623290  6292.502000     0.004395  6370.995605     8.999901  1599.988600     6.929088     3.738856     5.432171
   955.425420  6298.907200     0.004395  6370.995605     8.624945  1599.988600     6.929088     3.738856     5.432171
   914.169980  6305.023400     0.004395  6370.995605     8.249867  1599.993800     6.929084     3.738851     5.432169
   872.885620  6310.851100     0.004395  6370.995605     7.874903  1599.993000     6.929084     3.738852     5.432170
   831.572390  6316.447800     0.004395  6370.995605     7.499966  1599.996800     6.929081     3.738849     5.432168
   790.230290  6321.756300     0.004395  6370.995605     7.125112  1599.993900     6.929084     3.738851     5.432169
   748.830570  6326.776400     0.004395  6370.995605     6.750064  1599.996500     6.929081     3.738849     5.432168
   707.401980  6331.536100     0.004395  6370.995605     6.375033  1599.994400     6.929083     3.738851     5.432169
   665.944520  6336.036600     0.004395  6370.995605     6.000002  1599.997700     6.929080     3.738848     5.432168
   624.458250  6340.277800     0.004395  6370.995605     5.624959  1599.997700     6.929080     3.738848     5.432168
   582.943120  6344.230000     0.004395  6370.995605     5.249913  1599.995700     6.929082     3.738850     5.432169
   541.427980  6347.894500     0.004395  6370.995605     4.875103  1599.995700     6.929082     3.738850     5.432169
   499.855100  6351.298300     0.004395  6370.995605     4.499974  1599.993800     6.929084     3.738851     5.432169
   458.282260  6354.443400     0.004395  6370.995605     4.125028  1599.995500     6.929082     3.738850     5.432169
   416.680540  6357.299300     0.004395  6370.995605     3.750010  1600.000000     6.929078     3.738846     5.432167
   375.049990  6359.895500     0.004395  6370.995605     3.374886  1599.994300     6.929083     3.738851     5.432169
   333.419460  6362.204100     0.004395  6370.995605     2.999914  1599.994300     6.929083     3.738851     5.432169
   291.788910  6364.252400     0.004395  6370.995605     2.625065  1599.994300     6.929083     3.738851     5.432169
   250.129500  6366.041000     0.004395  6370.995605     2.250063  1599.994300     6.929083     3.738851     5.432169
   208.441250  6367.541000     0.004395  6370.995605     1.874906  1600.000000     6.929078     3.738846     5.432167
   166.781860  6368.752900     0.004395  6370.995605     1.500092  1599.988500     6.929088     3.738856     5.432171
   125.093600  6369.705100     0.004395  6370.995605     1.125078  1599.980800     6.929095     3.738862     5.432174
    83.405350  6370.397500     0.004395  6370.995605     0.750110  1599.979400     6.929097     3.738863     5.432174
    41.688248  6370.801300     0.004395  6370.995605     0.374918  1599.985600     6.929091     3.738858     5.432172
     0.000000  6370.945800     0.004395  6370.995605     0.000000  1600.000000     6.929078     3.738846     5.432167
  3178.923600  5506.051300    13.131836  6357.868164    30.000026  1604.960700     6.915067     3.726153     5.426519
  3142.803700  5526.736800    13.131836  6357.868164    29.624919  1604.963400     6.915068     3.726154     5.426520
  3106.567900  5547.191400    13.131836  6357.868164    29.249932  1604.963500     6.915068     3.726154     5.426520
  3070.188200  5567.386200    13.131836  6357.868164    28.874957  1604.967000     6.915069     3.726154     5.426520
  3033.692900  5587.379400    13.131836  6357.868164    28.499947  1604.968900     6.915069     3.726154     5.426521
  2997.053500  5607.112800    13.131836  6357.868164    28.124914  1604.972700     6.915070     3.726155     5.426521
  2960.298600  5626.615200    13.131836  6357.868164    27.749944  1604.974600     6.915071     3.726155     5.426522
  2923.399200  5645.858400    13.131836  6357.868164    27.374910  1604.979700     6.915072     3.726155     5.426523
  2886.385000  5664.870600    13.131836  6357.868164    26.999913  1604.982800     6.915073     3.726156     5.426523
  2849.254900  5683.651900    13.131836  6357.868164    26.624931  1604.990200     6.915074     3.726157     5.426525
  2812.009500  5702.173800    13.131836  6357.868164    26.250069  1604.993000     6.915075     3.726157     5.426525
  2774.619900  5720.436000    13.131836  6357.868164    25.875075  1604.998500     6.915076     3.726157     5.426526
  2737.115000  5738.495600    13.131836  6357.868164    25.499942  1604.998000     6.915076     3.726157     5.426526
  2699.494400  5756.267100    13.131836  6357.868164    25.124987  1605.004400     6.915078     3.726158     5.426527
  2661.758800  5773.808100    13.131836  6357.868164    24.749973  1605.006800     6.915078     3.726158     5.426528
  2623.907500  5791.118200    13.131836  6357.868164    24.374884  1605.020900     6.915081     3.726159     5.426530
  2585.969700  5808.168900    13.131836  6357.868164    24.000051  1605.069300     6.915091     3.726163     5.426538
  2547.887700  5824.959000    13.131836  6357.868164    23.624986  1605.078700     6.915093     3.726163     5.426540
  2509.719200  5841.519500    13.131836  6357.868164    23.250035  1605.081200     6.915093     3.726163     5.426540
  2471.435300  5857.819800    13.131836  6357.868164    22.875056  1605.085000     6.915094     3.726164     5.426541
  2433.035900  5873.859900    13.131836  6357.868164    22.500028  1605.111600     6.915098     3.726165     5.426544
  2394.550000  5889.669900    13.131836  6357.868164    22.125074  1605.130500     6.915101     3.726165     5.426547
  2355.948700  5905.219700    13.131836  6357.868164    21.750041  1605.147500     6.915103     3.726166     5.426549
  2317.231900  5920.510700    13.131836  6357.868164    21.374904  1605.169400     6.915106     3.726166     5.426552
  2278.428700  5935.541000    13.131836  6357.868164    20.999898  1605.184600     6.915107     3.726166     5.426554
  2239.538800  5950.341300    13.131836  6357.868164    20.624906  1605.277000     6.915114     3.726164     5.426563
  2200.562500  5964.852500    13.131836  6357.868164    20.250103  1605.311000     6.915115     3.726162     5.426566
  2161.470900  5979.133800    13.131836  6357.868164    19.875042  1605.376300     6.915116     3.726157     5.426571
  2122.292500  5993.154300    13.131836  6357.868164    19.500044  1605.439800     6.915115     3.726151     5.426574
  2083.027600  6006.916000    13.131836  6357.868164    19.125091  1605.558000     6.915108     3.726136     5.426578
  2043.647300  6020.418500    13.131836  6357.868164    18.749919  1605.813100     6.915074     3.726088     5.426578
  2004.209500  6033.659700    13.131836  6357.868164    18.375014  1605.012000     6.915080     3.726159     5.426529
  1964.684900  6046.671900    13.131836  6357.868164    18.000018  1603.355800     6.909008     3.721686     5.423288
  1925.074000  6059.394500    13.131836  6357.868164    17.625090  1606.405800     6.914918     3.725917     5.426539
  1885.347500  6071.857400    13.131836  6357.868164    17.249876  1623.513700     6.877425     3.692034     5.411143
  1845.592300  6084.061000    13.131836  6357.868164    16.875108  1638.451500     6.863526     3.677966     5.406379
  1805.721400  6096.004900    13.131836  6357.868164    16.500021  1650.118800     6.845116     3.660973     5.399130
  1765.793100  6107.689000    13.131836  6357.868164    16.125102  1679.117600     6.793793     3.613947     5.378766
  1725.778200  6119.143100    13.131836  6357.868164    15.750011  1693.131000     6.771266     3.593266     5.369812
  1685.676800  6130.278800    13.131836  6357.868164    15.374949  1681.142500     6.791848     3.612149     5.378005
  1645.517500  6141.184100    13.131836  6357.868164    14.999932  1689.944000     6.775312     3.597003     5.371408
  1605.300500  6151.829600    13.131836  6357.868164    14.625019  1691.142300     6.774065     3.595848     5.370919
  1564.997200  6162.215800    13.131836  6357.868164    14.249945  1686.503300     6.777549     3.599137     5.372247
  1524.635900  6172.313500    13.131836  6357.868164    13.875004  1687.064900     6.777324     3.598908     5.372173
  1484.217200  6182.150900    13.131836  6357.868164    13.500123  1681.060100     6.791942     3.612236     5.378042
  1443.711700  6191.757800    13.131836  6357.868164    13.124967  1677.122600     6.795059     3.615146     5.379242
  1403.148700  6201.076700    13.131836  6357.868164    12.749897  1672.679200     6.807388     3.626333     5.384207
  1362.527800  6210.106900    13.131836  6357.868164    12.374891  1669.774400     6.810818     3.629513     5.385552
  1321.878200  6218.906300    13.131836  6357.868164    12.000078  1663.465900     6.805534     3.626238     5.382415
  1281.142000  6227.417000    13.131836  6357.868164    11.625043  1660.963000     6.827056     3.644419     5.391999
  1240.348000  6235.668000    13.131836  6357.868164    11.249969  1655.229400     6.830455     3.647708     5.393219
  1199.525300  6243.659200    13.131836  6357.868164    10.875098  1653.541000     6.825304     3.643988     5.390498
  1158.616000  6251.362300    13.131836  6357.868164    10.499951  1657.987900     6.829561     3.646751     5.392962
  1117.677900  6258.805700    13.131836  6357.868164    10.124973  1672.341600     6.807890     3.626797     5.384405
  1076.682000  6265.989300    13.131836  6357.868164     9.749894  1680.098300     6.792941     3.613157     5.378435
  1035.657300  6272.913100    13.131836  6357.868164     9.374957  1688.323400     6.776607     3.598216     5.371908
   994.574890  6279.548800    13.131836  6357.868164     8.999929  1693.720900     6.755589     3.579913     5.362918
   953.463620  6285.924300    13.131836  6357.868164     8.625011  1692.715200     6.771944     3.593891     5.370081
   912.294680  6292.040500    13.131836  6357.868164     8.249930  1691.289300     6.773892     3.595688     5.370851
   871.096860  6297.868700    13.131836  6357.868164     7.874965  1689.912800     6.775341     3.597030     5.371419
   829.870240  6303.436500    13.131836  6357.868164     7.500063  1691.134500     6.774074     3.595856     5.370922
   788.585880  6308.744600    13.131836  6357.868164     7.124952  1694.168100     6.758461     3.582056     5.364377
   747.272710  6313.764600    13.131836  6357.868164     6.749905  1698.365200     6.758664     3.581799     5.364744
   705.930660  6318.524900    13.131836  6357.868164     6.374875  1702.495200     6.754359     3.577821     5.363051
   664.588620  6322.996600    13.131836  6357.868164     6.000133  1706.683500     6.741476     3.566168     5.357837
   623.188840  6327.209000    13.131836  6357.868164     5.625118  1712.006600     6.736940     3.561943     5.356081
   581.760250  6331.161100    13.131836  6357.868164     5.250074  1717.809100     6.722635     3.548973     5.350314
   540.302800  6334.825200    13.131836  6357.868164     4.875009  1724.859100     6.704601     3.532797     5.342945
   498.816530  6338.229500    13.131836  6357.868164     4.499884  1733.496600     6.669843     3.503765     5.327390
   457.330200  6341.374500    13.131836  6357.868164     4.124942  1744.779400     6.666875     3.498673     5.327732
   415.815060  6344.230000    13.131836  6357.868164     3.749930  1758.733400     6.646882     3.480344     5.319777
   374.299900  6346.797900    13.131836  6357.868164     3.375087  1775.957300     6.609495     3.446691     5.304449
   332.755920  6349.106400    13.131836  6357.868164     3.000120  1798.019800     6.569040     3.410357     5.287912
   291.183040  6351.154800    13.131836  6357.868164     2.625016  1824.951700     6.508306     3.356830     5.262299
   249.610200  6352.942900    13.131836  6357.868164     2.250021  1856.235800     6.445678     3.301800     5.235569
   208.008500  6354.414600    13.131836  6357.868164     1.874878  1888.740200     6.378885     3.244099     5.206170
   166.435640  6355.655300    13.131836  6357.868164     1.500063  1917.992800     6.311095     3.187180     5.175093
   124.833950  6356.606900    13.131836  6357.868164     1.125056  1939.426800     6.262586     3.147210     5.152029
    83.232254  6357.299300    13.131836  6357.868164     0.750096  1954.700800     6.212699     3.107626     5.127212
    41.601700  6357.703600    13.131836  6357.868164     0.374910  1963.453100     6.207288     3.102740     5.124743
     0.000000  6357.818400    13.131836  6357.868164     0.000000  1967.630400     6.189670     3.089029     5.115739
  3172.345900  5494.684600    26.229492  6344.770508    29.999907  1609.921400     7.018864     3.801909     5.483460
  3136.341300  5515.341300    26.229492  6344.770508    29.625058  1609.926800     7.018863     3.801907     5.483460
  3100.163100  5535.737800    26.229492  6344.770508    29.250007  1609.926400     7.018863     3.801908     5.483460
  3063.870100  5555.903800    26.229492  6344.770508    28.875067  1609.934300     7.018862     3.801905     5.483460
  3027.432600  5575.839800    26.229492  6344.770508    28.499988  1609.937000     7.018861     3.801904     5.483460
  2990.879600  5595.543900    26.229492  6344.770508    28.124992  1609.946700     7.018860     3.801901     5.483460
